15500MHz / Lb(0.05) dB
,h2(m),1000,1000,1000,1000,1000,10000,10000,10000,10000,10000,10000,20000,20000,20000,20000,20000,20000,20000
,h1(m),1.5,15,30,60,1000,1.5,15,30,60,1000,10000,1.5,15,30,60,1000,10000,20000
D (km),FSL
0,116.2,112.1,112,111.9,111.6,0,132.2,132.2,132.2,132.1,131.2,0,138.2,138.2,138.2,138.2,137.7,132.1,0
1,119.2,114.7,114.7,114.6,114.6,114,132.2,132.2,132.1,132.1,131.7,115.9,138.2,138.2,138.2,138.2,138,134.5,116
2,123.2,118.4,118.4,118.4,118.4,118.8,132.2,132.2,132.2,132.2,131.8,121.7,138.2,138.2,138.2,138.1,138,134.6,121.9
3,126.2,121.3,121.3,121.3,121.2,121.6,132.3,132.3,132.3,132.3,132,124.9,138.2,138.2,138.2,138.2,138,134.7,125.3
4,128.5,123.5,123.5,123.5,123.5,123.8,132.5,132.5,132.5,132.5,132.2,127.2,138.2,138.2,138.2,138.2,138,134.9,127.7
5,130.4,125.3,125.3,125.3,125.3,125.6,132.8,132.8,132.7,132.7,132.5,128.9,138.2,138.2,138.2,138.2,138,135.1,129.5
6,131.9,126.8,126.8,126.8,126.8,127,133,133,133,133,132.8,130.2,138.3,138.3,138.3,138.3,138.1,135.4,131
7,133.2,128.2,128.2,128.2,128.2,128.3,133.4,133.4,133.4,133.4,133.2,131.3,138.4,138.4,138.4,138.3,138.2,135.7,132.2
8,134.4,129.3,129.3,129.3,129.3,129.4,133.7,133.7,133.7,133.7,133.6,132.3,138.4,138.4,138.4,138.4,138.3,136.1,133.2
9,135.4,130.3,130.3,130.3,130.3,130.4,134.1,134.1,134.1,134.1,134,133.1,138.6,138.6,138.6,138.5,138.4,136.4,134.1
10,136.3,131.2,131.2,131.2,131.2,131.3,134.5,134.5,134.5,134.5,134.4,133.8,138.7,138.7,138.7,138.7,138.5,136.7,134.9
11,137.1,132.1,132.1,132.1,132.1,132.1,134.9,134.9,134.9,134.9,134.8,134.5,138.8,138.8,138.8,138.8,138.7,137.1,135.6
12,137.9,132.8,132.8,132.8,132.8,132.8,135.3,135.3,135.3,135.3,135.2,135.1,139,139,139,139,138.8,137.4,136.2
13,138.6,133.5,133.5,133.5,133.5,133.5,135.7,135.7,135.7,135.7,135.6,135.6,139.1,139.1,139.1,139.1,139,137.8,136.8
14,139.2,134.2,134.2,134.2,134.2,134.1,136.1,136.1,136.1,136.1,136.1,136.1,139.3,139.3,139.3,139.3,139.2,138.1,137.3
15,139.8,134.8,134.8,134.8,134.8,134.8,136.5,136.5,136.5,136.5,136.5,136.6,139.5,139.5,139.5,139.5,139.4,138.4,137.8
16,140.4,135.4,135.4,135.4,135.4,135.4,136.9,136.9,136.9,136.9,136.8,137,139.7,139.6,139.6,139.6,139.6,138.7,138.3
17,140.9,136,136,136,136,135.9,137.3,137.3,137.3,137.3,137.2,137.4,139.8,139.8,139.8,139.8,139.7,139,138.7
18,141.4,136.5,136.5,136.5,136.5,136.4,137.7,137.7,137.7,137.6,137.6,137.8,140,140,140,140,139.9,139.3,139.1
19,141.8,137,137,137,137,136.8,138,138,138,138,138,138.2,140.2,140.2,140.2,140.2,140.1,139.6,139.5
20,142.3,137.4,137.4,137.4,137.4,137.3,138.4,138.4,138.4,138.4,138.3,138.5,140.4,140.4,140.4,140.4,140.3,139.9,139.8
21,142.7,137.9,137.9,137.9,137.9,137.8,138.7,138.7,138.7,138.7,138.6,138.9,140.6,140.6,140.6,140.6,140.5,140.1,140.1
22,143.1,138.3,138.3,138.3,138.3,138.2,139,139,139,139,139,139.2,140.8,140.8,140.8,140.8,140.7,140.4,140.5
23,143.5,138.7,138.7,138.7,138.7,138.6,139.3,139.3,139.3,139.3,139.3,139.5,141,141,141,141,140.9,140.6,140.8
24,143.9,139.1,139.1,139.1,139.1,139,139.7,139.7,139.7,139.7,139.6,139.8,141.2,141.2,141.2,141.2,141.1,140.9,141
25,144.2,139.5,139.5,139.5,139.5,139.3,140,139.9,139.9,139.9,139.9,140.1,141.4,141.4,141.4,141.4,141.3,141.1,141.3
26,144.6,139.8,139.8,139.8,139.8,139.6,140.2,140.2,140.2,140.2,140.2,140.4,141.5,141.5,141.5,141.5,141.5,141.3,141.6
27,144.9,140.2,140.2,140.2,140.2,140,140.5,140.5,140.5,140.5,140.4,140.7,141.7,141.7,141.7,141.7,141.7,141.5,141.8
28,145.2,140.5,140.5,140.5,140.5,140.3,140.8,140.8,140.8,140.8,140.7,140.9,141.9,141.9,141.9,141.9,141.9,141.7,142.1
29,145.5,140.8,140.8,140.8,140.8,140.6,141,141,141,141,141,141.2,142.1,142.1,142.1,142.1,142,141.9,142.3
30,145.8,141.1,141.1,141.1,141.1,141,141.3,141.3,141.3,141.3,141.2,141.4,142.3,142.3,142.3,142.3,142.2,142.1,142.5
31,146.1,141.4,141.4,141.4,141.4,141.3,141.5,141.5,141.5,141.5,141.5,141.7,142.5,142.5,142.5,142.5,142.4,142.2,142.8
32,146.4,141.7,141.7,141.7,141.7,141.5,141.8,141.8,141.8,141.8,141.7,141.9,142.7,142.7,142.7,142.7,142.6,142.4,143
33,146.6,142,142,142,142,141.8,142,142,142,142,142,142.2,142.9,142.9,142.9,142.9,142.8,142.6,143.2
34,146.9,142.3,142.3,142.3,142.3,142.1,142.3,142.3,142.3,142.3,142.2,142.4,143,143,143,143,143,142.8,143.4
35,147.1,142.5,142.5,142.5,142.5,142.4,142.5,142.5,142.5,142.5,142.4,142.6,143.2,143.2,143.2,143.2,143.1,143,143.6
36,147.4,142.8,142.8,142.8,142.8,142.6,142.7,142.7,142.7,142.7,142.6,142.8,143.4,143.4,143.4,143.4,143.3,143.1,143.7
37,147.6,143,143,143.1,143.1,142.9,142.9,142.9,142.9,142.9,142.8,143,143.6,143.6,143.6,143.6,143.5,143.3,143.9
38,147.9,143.3,143.3,143.3,143.3,143.1,143.1,143.1,143.1,143.1,143,143.2,143.7,143.7,143.7,143.7,143.7,143.5,144.1
39,148.1,143.5,143.5,143.5,143.5,143.4,143.3,143.3,143.3,143.3,143.2,143.4,143.9,143.9,143.9,143.9,143.8,143.6,144.2
40,148.3,143.7,143.7,143.8,143.8,143.6,143.5,143.5,143.5,143.5,143.4,143.6,144.1,144.1,144.1,144.1,144,143.8,144.4
41,148.5,143.9,144,144,144,143.8,143.7,143.7,143.7,143.7,143.6,143.8,144.2,144.2,144.2,144.2,144.2,144,144.6
42,148.7,144.2,144.2,144.2,144.2,144,143.9,143.9,143.9,143.9,143.8,144,144.4,144.4,144.4,144.4,144.3,144.1,144.7
43,148.9,144.4,144.4,144.4,144.4,144.2,144.1,144.1,144.1,144.1,144,144.2,144.6,144.6,144.6,144.6,144.5,144.3,144.8
44,149.1,144.6,144.6,144.6,144.7,144.4,144.3,144.3,144.3,144.3,144.2,144.3,144.7,144.7,144.7,144.7,144.6,144.4,145
45,149.3,144.8,144.8,144.8,144.9,144.7,144.5,144.5,144.5,144.5,144.4,144.5,144.9,144.9,144.9,144.9,144.8,144.6,145.1
46,149.5,145,145,145,145.1,144.9,144.7,144.7,144.7,144.7,144.6,144.7,145,145,145,145,144.9,144.7,145.3
47,149.7,145.2,145.2,145.2,145.3,145.1,144.8,144.8,144.8,144.8,144.7,144.8,145.2,145.2,145.2,145.2,145.1,144.9,145.4
48,149.9,145.3,145.4,145.4,145.5,145.2,145,145,145,145,144.9,145,145.3,145.3,145.3,145.3,145.2,145,145.5
49,150.1,145.5,145.6,145.6,145.6,145.4,145.2,145.2,145.2,145.2,145.1,145.1,145.5,145.5,145.5,145.5,145.4,145.2,145.7
50,150.2,145.7,145.8,145.8,145.8,145.6,145.4,145.4,145.4,145.4,145.2,145.3,145.6,145.6,145.6,145.6,145.5,145.3,145.8
51,150.4,145.9,145.9,146,146,145.8,145.5,145.5,145.5,145.5,145.4,145.4,145.8,145.8,145.8,145.8,145.7,145.5,146
52,150.6,146,146.1,146.1,146.2,146,145.7,145.7,145.7,145.7,145.6,145.6,145.9,145.9,145.9,145.9,145.8,145.6,146.1
53,150.7,146.2,146.3,146.3,146.4,146.2,145.9,145.8,145.8,145.8,145.7,145.7,146,146,146,146,146,145.7,146.2
54,150.9,146.4,146.4,146.5,146.5,146.3,146,146,146,146,145.9,145.9,146.2,146.2,146.2,146.2,146.1,145.9,146.3
55,151.1,146.5,146.6,146.6,146.7,146.5,146.2,146.2,146.2,146.2,146,146,146.3,146.3,146.3,146.3,146.2,146,146.5
56,151.2,146.7,146.8,146.8,146.9,146.7,146.3,146.3,146.3,146.3,146.2,146.2,146.5,146.4,146.4,146.4,146.4,146.1,146.6
57,151.4,146.8,146.9,147,147,146.8,146.5,146.5,146.5,146.5,146.3,146.3,146.6,146.6,146.6,146.6,146.5,146.3,146.7
58,151.5,146.9,147.1,147.1,147.2,147,146.6,146.6,146.6,146.6,146.5,146.4,146.7,146.7,146.7,146.7,146.6,146.4,146.8
59,151.7,147.1,147.2,147.3,147.3,147.2,146.8,146.8,146.8,146.8,146.6,146.6,146.8,146.8,146.8,146.8,146.7,146.5,147
60,151.8,147.2,147.3,147.4,147.5,147.3,146.9,146.9,146.9,146.9,146.8,146.7,147,147,147,147,146.9,146.6,147.1
61,152,147.3,147.5,147.5,147.6,147.5,147,147,147,147,146.9,146.8,147.1,147.1,147.1,147.1,147,146.8,147.2
62,152.1,147.5,147.6,147.7,147.8,147.6,147.2,147.2,147.2,147.2,147,147,147.2,147.2,147.2,147.2,147.1,146.9,147.3
63,152.2,147.6,147.7,147.8,147.9,147.8,147.3,147.3,147.3,147.3,147.2,147.1,147.3,147.3,147.3,147.3,147.2,147,147.4
64,152.4,147.7,147.9,148,148,147.9,147.5,147.5,147.4,147.4,147.3,147.2,147.5,147.5,147.5,147.5,147.4,147.1,147.5
65,152.5,147.8,148,148.1,148.2,148.1,147.6,147.6,147.6,147.6,147.4,147.3,147.6,147.6,147.6,147.6,147.5,147.2,147.6
66,152.6,147.9,148.1,148.2,148.3,148.2,147.7,147.7,147.7,147.7,147.6,147.4,147.7,147.7,147.7,147.7,147.6,147.3,147.7
67,152.8,148,148.2,148.3,148.4,148.3,147.8,147.8,147.8,147.8,147.7,147.6,147.8,147.8,147.8,147.8,147.7,147.4,147.9
68,152.9,148.1,148.3,148.4,148.6,148.5,148,148,148,148,147.8,147.7,147.9,147.9,147.9,147.9,147.8,147.5,148
69,153,148.2,148.5,148.6,148.7,148.6,148.1,148.1,148.1,148.1,147.9,147.8,148,148,148,148,147.9,147.7,148.1
70,153.2,148.3,148.6,148.7,148.8,148.8,148.2,148.2,148.2,148.2,148.1,147.9,148.1,148.1,148.1,148.1,148,147.8,148.2
71,153.3,148.4,148.7,148.8,148.9,148.9,148.3,148.3,148.3,148.3,148.2,148,148.3,148.3,148.3,148.2,148.1,147.9,148.3
72,153.4,148.5,148.8,148.9,149,149,148.5,148.5,148.5,148.4,148.3,148.1,148.4,148.4,148.4,148.4,148.3,148,148.4
73,153.5,148.6,148.9,149,149.1,149.2,148.6,148.6,148.6,148.6,148.4,148.2,148.5,148.5,148.5,148.5,148.4,148.1,148.5
74,153.6,148.7,149,149.1,149.3,149.3,148.7,148.7,148.7,148.7,148.5,148.4,148.6,148.6,148.6,148.6,148.5,148.2,148.6
75,153.8,148.8,149.1,149.2,149.4,149.4,148.8,148.8,148.8,148.8,148.6,148.5,148.7,148.7,148.7,148.7,148.6,148.3,148.7
76,153.9,148.9,149.1,149.3,149.5,149.5,148.9,148.9,148.9,148.9,148.7,148.6,148.8,148.8,148.8,148.8,148.7,148.4,148.8
77,154,149.1,149.2,149.4,149.6,149.7,149,149,149,149,148.8,148.7,148.9,148.9,148.9,148.9,148.8,148.5,148.9
78,154.1,149.3,149.3,149.5,149.7,149.8,149.1,149.1,149.1,149.1,149,148.8,149,149,149,149,148.8,148.5,149
79,154.2,149.4,149.4,149.6,149.7,149.9,149.2,149.2,149.2,149.2,149.1,148.9,149,149,149,149,148.9,148.6,149.1
80,154.3,149.6,149.5,149.6,149.8,150,149.3,149.3,149.3,149.3,149.2,149,149.1,149.1,149.1,149.1,149,148.7,149.2
81,154.4,149.8,149.6,149.7,149.9,150.1,149.4,149.4,149.4,149.4,149.3,149.1,149.2,149.2,149.2,149.2,149.1,148.8,149.3
82,154.5,149.9,149.7,149.8,150,150.2,149.5,149.5,149.5,149.5,149.4,149.2,149.3,149.3,149.3,149.3,149.2,148.8,149.4
83,154.6,150.1,149.9,149.9,150.1,150.4,149.6,149.6,149.6,149.6,149.5,149.3,149.4,149.4,149.4,149.4,149.3,148.9,149.5
84,154.7,150.2,150.1,150,150.2,150.5,149.7,149.7,149.7,149.7,149.5,149.4,149.5,149.5,149.5,149.5,149.3,149,149.5
85,154.8,150.4,150.2,150.1,150.3,150.6,149.8,149.8,149.8,149.8,149.6,149.5,149.6,149.6,149.6,149.5,149.4,149.1,149.6
86,154.9,150.6,150.4,150.3,150.3,150.7,149.9,149.9,149.9,149.9,149.7,149.6,149.6,149.6,149.6,149.6,149.5,149.1,149.7
87,155,150.7,150.5,150.4,150.4,150.8,150,150,150,150,149.8,149.7,149.7,149.7,149.7,149.7,149.5,149.2,149.8
88,155.1,150.9,150.7,150.6,150.5,150.9,150.1,150.1,150.1,150.1,149.9,149.7,149.7,149.7,149.7,149.7,149.6,149.2,149.9
89,155.2,151,150.8,150.7,150.6,151,150.2,150.2,150.2,150.2,150,149.8,149.8,149.8,149.8,149.8,149.6,149.2,150
90,155.3,151.2,151,150.9,150.7,151.1,150.3,150.3,150.3,150.3,150.1,149.9,149.8,149.8,149.8,149.8,149.7,149.3,150.1
91,155.4,151.3,151.1,151,150.9,151.2,150.4,150.4,150.4,150.3,150.1,150,149.8,149.8,149.8,149.8,149.6,149.2,150.1
92,155.5,151.5,151.3,151.2,151,151.3,150.4,150.4,150.4,150.4,150.2,150.1,149.8,149.8,149.8,149.8,149.7,149.3,150.2
93,155.6,151.6,151.4,151.3,151.1,151.4,150.5,150.5,150.5,150.5,150.3,150.2,149.9,149.9,149.9,149.9,149.8,149.4,150.3
94,155.7,151.8,151.6,151.4,151.3,151.5,150.5,150.5,150.5,150.5,150.3,150.3,150,150,150,150,149.9,149.5,150.4
95,155.8,151.9,151.7,151.6,151.4,151.6,150.6,150.6,150.6,150.6,150.4,150.4,150.1,150.1,150.1,150.1,150,149.6,150.5
96,155.9,152.1,151.8,151.7,151.5,151.7,150.6,150.6,150.6,150.6,150.3,150.5,150.2,150.2,150.2,150.2,150,149.6,150.5
97,156,152.2,152,151.9,151.7,151.8,150.6,150.6,150.6,150.6,150.4,150.5,150.3,150.3,150.3,150.3,150.1,149.7,150.6
98,156.1,152.3,152.1,152,151.8,151.8,150.7,150.7,150.7,150.7,150.5,150.6,150.4,150.4,150.4,150.4,150.2,149.8,150.7
99,156.2,152.5,152.3,152.1,152,151.9,150.8,150.8,150.8,150.8,150.6,150.7,150.5,150.5,150.5,150.5,150.3,149.9,150.8
100,156.3,152.6,152.4,152.2,152.1,152,150.9,150.9,150.9,150.9,150.6,150.8,150.6,150.5,150.5,150.5,150.4,150,150.9
101,156.3,152.7,152.5,152.4,152.2,152.1,151,151,151,150.9,150.7,150.9,150.6,150.6,150.6,150.6,150.5,150.1,150.9
102,156.4,152.8,152.6,152.5,152.3,152.2,151.1,151.1,151.1,151,150.8,150.9,150.7,150.7,150.7,150.7,150.6,150.2,151
103,156.5,152.9,152.7,152.6,152.4,152.3,151.2,151.1,151.1,151.1,150.9,151,150.8,150.8,150.8,150.8,150.7,150.3,151.1
104,156.6,153,152.8,152.7,152.5,152.3,151.2,151.2,151.2,151.2,151,151.1,150.9,150.9,150.9,150.9,150.8,150.3,151.2
105,156.7,153.1,152.9,152.7,152.5,152.4,151.3,151.3,151.3,151.3,151.1,151.2,151,151,151,151,150.8,150.4,151.2
106,156.8,153.1,152.9,152.8,152.6,152.5,151.4,151.4,151.4,151.4,151.2,151.3,151.1,151.1,151.1,151.1,150.9,150.5,151.3
107,156.8,153.3,153.1,152.9,152.7,152.6,151.5,151.5,151.5,151.5,151.3,151.3,151.2,151.2,151.2,151.1,151,150.6,151.4
108,156.9,153.4,153.2,153.1,152.9,152.6,151.6,151.6,151.6,151.6,151.4,151.4,151.2,151.2,151.2,151.2,151.1,150.7,151.5
109,157,153.6,153.3,153.2,153,152.7,151.7,151.7,151.7,151.7,151.5,151.5,151.3,151.3,151.3,151.3,151.2,150.7,151.5
110,157.1,153.7,153.5,153.3,153.1,152.7,151.8,151.8,151.8,151.8,151.5,151.5,151.4,151.4,151.4,151.4,151.3,150.8,151.6
111,157.2,153.8,153.6,153.5,153.3,152.8,151.9,151.9,151.9,151.9,151.6,151.6,151.5,151.5,151.5,151.5,151.3,150.9,151.7
112,157.2,154,153.7,153.6,153.4,152.9,152,152,152,151.9,151.7,151.7,151.6,151.6,151.6,151.6,151.4,151,151.7
113,157.3,154.1,153.9,153.7,153.5,152.9,152,152,152,152,151.8,151.8,151.7,151.7,151.6,151.6,151.5,151.1,151.8
114,157.4,154.2,154,153.9,153.7,153,152.1,152.1,152.1,152.1,151.9,151.8,151.7,151.7,151.7,151.7,151.6,151.1,151.9
115,157.5,154.4,154.1,154,153.8,153,152.2,152.2,152.2,152.2,152,151.9,151.8,151.8,151.8,151.8,151.7,151.2,151.9
116,157.5,154.5,154.3,154.1,153.9,153.1,152.3,152.3,152.3,152.3,152,152,151.9,151.9,151.9,151.9,151.7,151.3,152
117,157.6,154.6,154.4,154.3,154.1,153.1,152.4,152.4,152.4,152.4,152.1,152,152,152,152,152,151.8,151.4,152.1
118,157.7,154.7,154.5,154.4,154.2,153.1,152.5,152.5,152.5,152.5,152.2,152.1,152,152,152,152,151.9,151.4,152.1
119,157.8,154.9,154.7,154.5,154.3,153.1,152.6,152.5,152.5,152.5,152.3,152.2,152.1,152.1,152.1,152.1,152,151.5,152.2
120,157.8,155,154.8,154.7,154.5,153,152.6,152.6,152.6,152.6,152.4,152.2,152.2,152.2,152.2,152.2,152,151.6,152.2
121,157.9,155.1,154.9,154.8,154.6,153.1,152.7,152.7,152.7,152.7,152.4,152.3,152.3,152.3,152.3,152.3,152.1,151.7,152.3
122,158,155.2,155,154.9,154.7,153.2,152.8,152.8,152.8,152.8,152.5,152.3,152.4,152.4,152.3,152.3,152.2,151.7,152.4
123,158.1,155.4,155.2,155,154.8,153.2,152.9,152.9,152.9,152.9,152.6,152.4,152.4,152.4,152.4,152.4,152.3,151.8,152.4
124,158.1,155.5,155.3,155.2,155,153.3,153,153,152.9,152.9,152.7,152.5,152.5,152.5,152.5,152.5,152.3,151.9,152.5
125,158.2,155.6,155.4,155.3,155.1,153.4,153,153,153,153,152.8,152.5,152.6,152.6,152.6,152.6,152.4,151.9,152.5
126,158.3,155.7,155.5,155.4,155.2,153.4,153.1,153.1,153.1,153.1,152.8,152.6,152.6,152.6,152.6,152.6,152.5,152,152.6
127,158.3,155.9,155.7,155.5,155.3,153.5,153.2,153.2,153.2,153.2,152.9,152.6,152.7,152.7,152.7,152.7,152.5,152.1,152.7
128,158.4,156,155.8,155.6,155.4,153.6,153.3,153.3,153.3,153.3,153,152.7,152.8,152.8,152.8,152.8,152.6,152.1,152.7
129,158.5,156.1,155.9,155.8,155.6,153.6,153.3,153.3,153.3,153.3,153.1,152.7,152.9,152.9,152.9,152.9,152.7,152.2,152.8
130,158.5,156.3,156,155.9,155.7,153.7,153.4,153.4,153.4,153.4,153.1,152.8,152.9,152.9,152.9,152.9,152.8,152.3,152.8
131,158.6,156.6,156.1,156,155.9,153.8,153.5,153.5,153.5,153.5,153.2,152.9,153,153,153,153,152.8,152.3,152.9
132,158.7,157.2,156.2,156.1,156,153.8,153.6,153.6,153.6,153.6,153.3,152.9,153.1,153.1,153.1,153.1,152.9,152.4,152.9
133,158.7,158.1,156.4,156.3,156.1,153.9,153.7,153.6,153.6,153.6,153.4,153,153.1,153.1,153.1,153.1,153,152.5,153
134,158.8,159.2,156.6,156.4,156.2,153.9,153.7,153.7,153.7,153.7,153.4,153,153.2,153.2,153.2,153.2,153,152.5,153
135,158.9,160.4,156.7,156.5,156.3,154,153.8,153.8,153.8,153.8,153.5,153.1,153.3,153.3,153.3,153.3,153.1,152.6,153.1
136,158.9,161.5,156.7,156.6,156.4,154.1,153.9,153.9,153.9,153.9,153.6,153.1,153.4,153.4,153.3,153.3,153.2,152.7,153.1
137,159,162.7,156.9,156.7,156.5,154.1,153.9,153.9,153.9,153.9,153.6,153.2,153.4,153.4,153.4,153.4,153.2,152.7,153.2
138,159.1,163.8,157,156.8,156.6,154.2,154,154,154,154,153.7,153.2,153.5,153.5,153.5,153.5,153.3,152.8,153.2
139,159.1,164.9,157,156.9,156.7,154.3,154.1,154.1,154.1,154.1,153.8,153.2,153.6,153.6,153.6,153.5,153.4,152.9,153.3
140,159.2,166.7,157.1,157.1,156.8,154.4,154.2,154.2,154.2,154.1,153.8,153.3,153.6,153.6,153.6,153.6,153.4,152.9,153.3
141,159.2,168.9,157.3,157.1,156.9,154.5,154.2,154.2,154.2,154.2,153.9,153.3,153.7,153.7,153.7,153.7,153.5,153,153.3
142,159.3,171.2,157.4,157.2,157.1,154.6,154.3,154.3,154.3,154.3,154,153.3,153.8,153.8,153.8,153.7,153.6,153.1,153.4
143,159.3,173.4,157.4,157.4,157.2,154.7,154.4,154.4,154.4,154.4,154.1,153.3,153.8,153.8,153.8,153.8,153.6,153.1,153.4
144,159.4,175.7,157.6,157.5,157.3,154.8,154.4,154.4,154.4,154.4,154.1,153.4,153.9,153.9,153.9,153.9,153.7,153.2,153.4
145,159.5,178,157.7,157.6,157.4,154.9,154.5,154.5,154.5,154.5,154.2,153.4,154,154,153.9,153.9,153.8,153.2,153.5
146,159.5,180.2,157.8,157.7,157.5,155.1,154.6,154.6,154.6,154.6,154.3,153.3,154,154,154,154,153.8,153.3,153.5
147,159.6,182.5,157.9,157.8,157.6,155.2,154.7,154.7,154.6,154.6,154.3,153.4,154.1,154.1,154.1,154.1,153.9,153.4,153.5
148,159.6,184.7,158.1,157.9,157.7,155.3,154.7,154.7,154.7,154.7,154.4,153.4,154.1,154.1,154.1,154.1,153.9,153.4,153.5
149,159.7,187,158.9,158,157.8,155.4,154.8,154.8,154.8,154.8,154.5,153.5,154.2,154.2,154.2,154.2,154,153.5,153.5
150,159.7,188.1,160.8,158.1,157.9,155.5,154.9,154.9,154.9,154.8,154.5,153.5,154.3,154.3,154.3,154.3,154.1,153.5,153.4
151,159.8,188.7,162.8,158.2,158,155.6,154.9,154.9,154.9,154.9,154.6,153.6,154.3,154.3,154.3,154.3,154.1,153.6,153.5
152,159.9,189.4,165,158.3,158.2,155.7,155,155,155,155,154.7,153.7,154.4,154.4,154.4,154.4,154.2,153.6,153.5
153,159.9,190,167.3,158.4,158.2,155.8,155.1,155.1,155.1,155,154.7,153.7,154.5,154.5,154.5,154.4,154.2,153.7,153.6
154,160,190.5,169.5,158.6,158.4,155.9,155.1,155.1,155.1,155.1,154.8,153.8,154.5,154.5,154.5,154.5,154.3,153.8,153.7
155,160,191,171.8,158.6,158.4,156,155.2,155.2,155.2,155.2,154.8,153.8,154.6,154.6,154.6,154.6,154.4,153.8,153.7
156,160.1,191.5,174,159,158.6,156.1,155.3,155.3,155.3,155.2,154.9,153.9,154.6,154.6,154.6,154.6,154.4,153.9,153.8
157,160.1,192,176,160.8,158.7,156.2,155.3,155.3,155.3,155.3,155,153.9,154.7,154.7,154.7,154.7,154.5,153.9,153.8
158,160.2,192.5,177.7,162.9,158.8,156.3,155.4,155.4,155.4,155.4,155,154,154.8,154.8,154.8,154.7,154.5,154,153.9
159,160.2,192.9,179.2,165,158.9,156.4,155.5,155.5,155.4,155.4,155.1,154.1,154.8,154.8,154.8,154.8,154.6,154,153.9
160,160.3,193.3,180.5,167.2,159,156.5,155.5,155.5,155.5,155.5,155.2,154.1,154.9,154.9,154.9,154.9,154.7,154.1,154
161,160.4,193.7,181.7,169.3,159.1,156.6,155.6,155.6,155.6,155.6,155.2,154.2,154.9,154.9,154.9,154.9,154.7,154.1,154
162,160.4,194.1,182.8,171.5,159.2,156.7,155.6,155.6,155.6,155.6,155.3,154.2,155,155,155,155,154.8,154.2,154.1
163,160.5,194.5,183.8,173.6,159.3,156.8,155.7,155.7,155.7,155.7,155.3,154.3,155.1,155.1,155.1,155,154.8,154.3,154.1
164,160.5,194.9,184.7,175.7,159.4,156.9,155.8,155.8,155.8,155.8,155.4,154.3,155.1,155.1,155.1,155.1,154.9,154.3,154.2
165,160.6,195.2,185.5,177.5,159.5,157,155.8,155.8,155.8,155.8,155.5,154.4,155.2,155.2,155.2,155.2,154.9,154.4,154.3
166,160.6,195.6,186.3,179.1,159.8,157.1,155.9,155.9,155.9,155.9,155.5,154.4,155.2,155.2,155.2,155.2,155,154.4,154.3
167,160.7,195.9,187.1,180.4,161.5,157.2,156,156,156,155.9,155.6,154.5,155.3,155.3,155.3,155.3,155.1,154.5,154.4
168,160.7,196.3,187.7,181.7,163.7,157.2,156,156,156,156,155.6,154.5,155.3,155.3,155.3,155.3,155.1,154.5,154.4
169,160.8,196.6,188.4,182.8,165.8,157.3,156.1,156.1,156.1,156.1,155.7,154.6,155.4,155.4,155.4,155.4,155.2,154.6,154.5
170,160.8,196.9,189,183.8,167.8,157.4,156.1,156.1,156.1,156.1,155.8,154.6,155.5,155.5,155.5,155.4,155.2,154.6,154.5
171,160.9,197.2,189.6,184.8,169.9,157.5,156.2,156.2,156.2,156.2,155.8,154.7,155.5,155.5,155.5,155.5,155.3,154.7,154.6
172,160.9,197.5,190.2,185.6,172,157.6,156.3,156.3,156.3,156.2,155.9,154.7,155.6,155.6,155.6,155.6,155.3,154.7,154.6
173,161,197.8,190.7,186.4,174.1,157.7,156.3,156.3,156.3,156.3,155.9,154.8,155.6,155.6,155.6,155.6,155.4,154.8,154.7
