15500MHz / Lb(0.10) dB
,h2(m),1000,1000,1000,1000,1000,10000,10000,10000,10000,10000,10000,20000,20000,20000,20000,20000,20000,20000
,h1(m),1.5,15,30,60,1000,1.5,15,30,60,1000,10000,1.5,15,30,60,1000,10000,20000
D (km),FSL
0,116.2,112.9,112.8,112.6,112.4,0,132.9,132.9,132.9,132.9,132,0,139,139,139,138.9,138.5,132.9,0
1,119.2,115.5,115.5,115.5,115.4,114.5,132.9,132.9,132.9,132.9,132.4,116,138.9,138.9,138.9,138.9,138.7,134.9,116.1
2,123.2,119.2,119.2,119.2,119.2,119.4,133,133,133,133,132.5,121.8,138.9,138.9,138.9,138.9,138.7,134.9,122
3,126.2,122.2,122.2,122.2,122.1,122.4,133.1,133.1,133.1,133.1,132.7,125.1,138.9,138.9,138.9,138.9,138.7,135.1,125.4
4,128.5,124.4,124.4,124.4,124.4,124.7,133.3,133.3,133.3,133.3,132.9,127.4,139,139,139,138.9,138.7,135.3,127.8
5,130.4,126.3,126.3,126.3,126.3,126.4,133.5,133.5,133.5,133.5,133.2,129.2,139,139,139,139,138.8,135.5,129.7
6,131.9,127.8,127.8,127.8,127.8,127.9,133.8,133.8,133.8,133.8,133.5,130.6,139.1,139.1,139.1,139,138.8,135.8,131.2
7,133.2,129.1,129.1,129.1,129.1,129.2,134.2,134.2,134.2,134.2,133.9,131.7,139.1,139.1,139.1,139.1,138.9,136.2,132.4
8,134.4,130.2,130.2,130.2,130.2,130.3,134.6,134.6,134.6,134.6,134.3,132.7,139.2,139.2,139.2,139.2,139,136.5,133.4
9,135.4,131.3,131.3,131.3,131.3,131.3,135,135,135,134.9,134.7,133.6,139.3,139.3,139.3,139.3,139.2,136.9,134.4
10,136.3,132.2,132.2,132.2,132.2,132.2,135.4,135.4,135.4,135.4,135.2,134.3,139.5,139.5,139.5,139.5,139.3,137.2,135.2
11,137.1,133,133,133,133,133,135.8,135.8,135.8,135.8,135.6,135,139.6,139.6,139.6,139.6,139.4,137.6,135.9
12,137.9,133.8,133.8,133.8,133.8,133.8,136.2,136.2,136.2,136.2,136,135.6,139.8,139.8,139.8,139.8,139.6,137.9,136.6
13,138.6,134.5,134.5,134.5,134.5,134.4,136.6,136.6,136.6,136.6,136.5,136.2,139.9,139.9,139.9,139.9,139.8,138.3,137.2
14,139.2,135.2,135.2,135.2,135.2,135.1,137,137,137,137,136.9,136.7,140.1,140.1,140.1,140.1,140,138.6,137.7
15,139.8,135.8,135.8,135.8,135.8,135.7,137.4,137.4,137.4,137.4,137.3,137.2,140.3,140.3,140.3,140.3,140.1,139,138.2
16,140.4,136.4,136.4,136.4,136.4,136.3,137.8,137.8,137.8,137.8,137.7,137.6,140.5,140.5,140.5,140.5,140.3,139.3,138.7
17,140.9,136.9,136.9,136.9,136.9,136.8,138.2,138.2,138.2,138.2,138.1,138.1,140.7,140.7,140.7,140.7,140.5,139.6,139.1
18,141.4,137.4,137.4,137.4,137.4,137.3,138.5,138.5,138.5,138.5,138.4,138.5,140.9,140.9,140.9,140.8,140.7,139.9,139.6
19,141.8,137.9,137.9,137.9,137.9,137.8,138.9,138.9,138.9,138.9,138.8,138.9,141,141,141,141,140.9,140.2,139.9
20,142.3,138.4,138.4,138.4,138.4,138.2,139.2,139.2,139.2,139.2,139.2,139.2,141.2,141.2,141.2,141.2,141.1,140.5,140.3
21,142.7,138.8,138.8,138.8,138.8,138.7,139.6,139.6,139.6,139.6,139.5,139.6,141.4,141.4,141.4,141.4,141.3,140.8,140.7
22,143.1,139.3,139.3,139.3,139.3,139.1,139.9,139.9,139.9,139.9,139.8,139.9,141.6,141.6,141.6,141.6,141.5,141.1,141
23,143.5,139.7,139.7,139.7,139.7,139.5,140.2,140.2,140.2,140.2,140.2,140.3,141.8,141.8,141.8,141.8,141.7,141.3,141.3
24,143.9,140.1,140.1,140.1,140.1,139.9,140.6,140.6,140.6,140.6,140.5,140.6,142,142,142,142,141.9,141.6,141.6
25,144.2,140.4,140.4,140.4,140.4,140.3,140.9,140.9,140.9,140.8,140.8,140.9,142.2,142.2,142.2,142.2,142.1,141.8,141.9
26,144.6,140.8,140.8,140.8,140.8,140.6,141.1,141.1,141.1,141.1,141.1,141.2,142.4,142.4,142.4,142.4,142.3,142,142.2
27,144.9,141.1,141.1,141.1,141.1,140.9,141.4,141.4,141.4,141.4,141.3,141.5,142.6,142.6,142.6,142.6,142.5,142.2,142.4
28,145.2,141.5,141.5,141.5,141.5,141.3,141.7,141.7,141.7,141.7,141.6,141.7,142.8,142.8,142.8,142.8,142.7,142.4,142.7
29,145.5,141.8,141.8,141.8,141.8,141.6,142,142,142,142,141.9,142,143,143,143,143,142.9,142.6,142.9
30,145.8,142.1,142.1,142.1,142.1,141.9,142.2,142.2,142.2,142.2,142.1,142.3,143.2,143.2,143.2,143.2,143.1,142.8,143.2
31,146.1,142.4,142.4,142.4,142.4,142.2,142.5,142.5,142.5,142.5,142.4,142.5,143.4,143.4,143.4,143.4,143.3,143,143.4
32,146.4,142.7,142.7,142.7,142.7,142.5,142.7,142.7,142.7,142.7,142.6,142.8,143.6,143.6,143.6,143.6,143.5,143.2,143.6
33,146.6,143,143,143,143,142.8,143,143,143,143,142.9,143,143.8,143.8,143.8,143.8,143.7,143.4,143.8
34,146.9,143.2,143.2,143.3,143.3,143.1,143.2,143.2,143.2,143.2,143.1,143.2,143.9,143.9,143.9,143.9,143.9,143.6,144
35,147.1,143.5,143.5,143.5,143.5,143.3,143.4,143.4,143.4,143.4,143.3,143.4,144.1,144.1,144.1,144.1,144,143.8,144.2
36,147.4,143.8,143.8,143.8,143.8,143.6,143.6,143.6,143.6,143.6,143.6,143.7,144.3,144.3,144.3,144.3,144.2,144,144.4
37,147.6,144,144,144,144,143.8,143.9,143.9,143.9,143.9,143.8,143.9,144.5,144.5,144.5,144.5,144.4,144.1,144.6
38,147.9,144.3,144.3,144.3,144.3,144.1,144.1,144.1,144.1,144.1,144,144.1,144.7,144.7,144.7,144.7,144.6,144.3,144.8
39,148.1,144.5,144.5,144.5,144.5,144.3,144.3,144.3,144.3,144.3,144.2,144.3,144.8,144.8,144.8,144.8,144.7,144.5,145
40,148.3,144.7,144.7,144.7,144.8,144.5,144.5,144.5,144.5,144.5,144.4,144.5,145,145,145,145,144.9,144.7,145.1
41,148.5,144.9,145,145,145,144.8,144.7,144.7,144.7,144.7,144.6,144.7,145.2,145.2,145.2,145.2,145.1,144.8,145.3
42,148.7,145.2,145.2,145.2,145.2,145,144.9,144.9,144.9,144.9,144.8,144.8,145.3,145.3,145.3,145.3,145.3,145,145.4
43,148.9,145.4,145.4,145.4,145.4,145.2,145.1,145.1,145.1,145.1,145,145,145.5,145.5,145.5,145.5,145.4,145.2,145.6
44,149.1,145.6,145.6,145.6,145.6,145.4,145.3,145.3,145.3,145.3,145.2,145.2,145.7,145.7,145.7,145.7,145.6,145.3,145.8
45,149.3,145.8,145.8,145.8,145.9,145.6,145.4,145.4,145.4,145.4,145.3,145.4,145.8,145.8,145.8,145.8,145.7,145.5,145.9
46,149.5,146,146,146,146.1,145.8,145.6,145.6,145.6,145.6,145.5,145.5,146,146,146,146,145.9,145.6,146.1
47,149.7,146.2,146.2,146.2,146.3,146,145.8,145.8,145.8,145.8,145.7,145.7,146.1,146.1,146.1,146.1,146,145.8,146.2
48,149.9,146.4,146.4,146.4,146.5,146.2,146,146,146,146,145.9,145.9,146.3,146.3,146.3,146.3,146.2,145.9,146.3
49,150.1,146.6,146.6,146.6,146.7,146.4,146.2,146.2,146.2,146.2,146,146,146.4,146.4,146.4,146.4,146.3,146.1,146.5
50,150.2,146.7,146.8,146.8,146.8,146.6,146.3,146.3,146.3,146.3,146.2,146.2,146.6,146.6,146.6,146.6,146.5,146.2,146.6
51,150.4,146.9,147,147,147,146.8,146.5,146.5,146.5,146.5,146.4,146.3,146.7,146.7,146.7,146.7,146.6,146.4,146.8
52,150.6,147.1,147.1,147.2,147.2,147,146.7,146.7,146.7,146.7,146.5,146.5,146.9,146.9,146.9,146.9,146.8,146.5,146.9
53,150.7,147.3,147.3,147.4,147.4,147.1,146.8,146.8,146.8,146.8,146.7,146.6,147,147,147,147,146.9,146.7,147
54,150.9,147.4,147.5,147.5,147.6,147.3,147,147,147,147,146.9,146.8,147.1,147.1,147.1,147.1,147.1,146.8,147.2
55,151.1,147.6,147.7,147.7,147.7,147.5,147.1,147.1,147.1,147.1,147,146.9,147.3,147.3,147.3,147.3,147.2,146.9,147.3
56,151.2,147.7,147.8,147.9,147.9,147.7,147.3,147.3,147.3,147.3,147.2,147.1,147.4,147.4,147.4,147.4,147.3,147.1,147.4
57,151.4,147.9,148,148,148.1,147.8,147.5,147.4,147.4,147.4,147.3,147.2,147.6,147.6,147.6,147.6,147.5,147.2,147.6
58,151.5,148,148.1,148.2,148.2,148,147.6,147.6,147.6,147.6,147.5,147.4,147.7,147.7,147.7,147.7,147.6,147.3,147.7
59,151.7,148.2,148.3,148.3,148.4,148.1,147.7,147.7,147.7,147.7,147.6,147.5,147.8,147.8,147.8,147.8,147.7,147.5,147.8
60,151.8,148.3,148.4,148.5,148.5,148.3,147.9,147.9,147.9,147.9,147.8,147.6,148,148,147.9,147.9,147.9,147.6,147.9
61,152,148.5,148.6,148.6,148.7,148.5,148,148,148,148,147.9,147.8,148.1,148.1,148.1,148.1,148,147.7,148.1
62,152.1,148.6,148.7,148.8,148.8,148.6,148.2,148.2,148.2,148.2,148,147.9,148.2,148.2,148.2,148.2,148.1,147.8,148.2
63,152.2,148.7,148.9,148.9,149,148.8,148.3,148.3,148.3,148.3,148.2,148,148.3,148.3,148.3,148.3,148.2,148,148.3
64,152.4,148.9,149,149,149.1,148.9,148.4,148.4,148.4,148.4,148.3,148.1,148.5,148.5,148.5,148.4,148.4,148.1,148.4
65,152.5,149,149.1,149.2,149.3,149,148.6,148.6,148.6,148.6,148.4,148.3,148.6,148.6,148.6,148.6,148.5,148.2,148.5
66,152.6,149.1,149.2,149.3,149.4,149.2,148.7,148.7,148.7,148.7,148.6,148.4,148.7,148.7,148.7,148.7,148.6,148.3,148.6
67,152.8,149.2,149.4,149.4,149.5,149.3,148.8,148.8,148.8,148.8,148.7,148.5,148.8,148.8,148.8,148.8,148.7,148.4,148.7
68,152.9,149.3,149.5,149.6,149.7,149.5,149,149,149,149,148.8,148.6,148.9,148.9,148.9,148.9,148.8,148.5,148.9
69,153,149.5,149.6,149.7,149.8,149.6,149.1,149.1,149.1,149.1,148.9,148.7,149,149,149,149,148.9,148.6,149
70,153.2,149.6,149.7,149.8,149.9,149.8,149.2,149.2,149.2,149.2,149.1,148.9,149.1,149.1,149.1,149.1,149,148.7,149.1
71,153.3,149.7,149.9,149.9,150,149.9,149.3,149.3,149.3,149.3,149.2,149,149.3,149.3,149.3,149.2,149.1,148.8,149.2
72,153.4,149.8,150,150.1,150.2,150,149.5,149.5,149.5,149.5,149.3,149.1,149.4,149.4,149.4,149.4,149.3,148.9,149.3
73,153.5,149.9,150.1,150.2,150.3,150.2,149.6,149.6,149.6,149.6,149.4,149.2,149.5,149.5,149.5,149.5,149.4,149.1,149.4
74,153.6,150,150.2,150.3,150.4,150.3,149.7,149.7,149.7,149.7,149.5,149.3,149.6,149.6,149.6,149.6,149.5,149.2,149.5
75,153.8,150.1,150.3,150.4,150.5,150.4,149.8,149.8,149.8,149.8,149.6,149.4,149.7,149.7,149.7,149.7,149.6,149.3,149.6
76,153.9,150.2,150.4,150.5,150.6,150.5,149.9,149.9,149.9,149.9,149.8,149.5,149.8,149.8,149.8,149.8,149.7,149.4,149.7
77,154,150.3,150.5,150.6,150.7,150.7,150,150,150,150,149.9,149.6,149.9,149.9,149.9,149.9,149.8,149.5,149.8
78,154.1,150.5,150.6,150.7,150.8,150.8,150.1,150.1,150.1,150.1,150,149.7,150,150,150,150,149.9,149.5,149.9
79,154.2,150.7,150.7,150.8,150.9,150.9,150.3,150.3,150.2,150.2,150.1,149.8,150.1,150.1,150.1,150.1,149.9,149.6,150
80,154.3,150.8,150.8,150.9,151,151,150.4,150.4,150.4,150.4,150.2,149.9,150.2,150.2,150.2,150.1,150,149.7,150.1
81,154.4,151,150.8,151,151.1,151.2,150.5,150.5,150.5,150.5,150.3,150,150.2,150.2,150.2,150.2,150.1,149.8,150.2
82,154.5,151.2,151,151.1,151.2,151.3,150.6,150.6,150.6,150.6,150.4,150.1,150.3,150.3,150.3,150.3,150.2,149.9,150.3
83,154.6,151.3,151.1,151.2,151.3,151.4,150.7,150.7,150.7,150.7,150.5,150.2,150.4,150.4,150.4,150.4,150.3,149.9,150.4
84,154.7,151.5,151.3,151.2,151.4,151.5,150.8,150.8,150.8,150.8,150.6,150.3,150.5,150.5,150.5,150.5,150.4,150,150.5
85,154.8,151.7,151.4,151.3,151.5,151.6,150.9,150.9,150.9,150.9,150.7,150.4,150.6,150.6,150.6,150.6,150.5,150.1,150.6
86,154.9,151.8,151.6,151.5,151.6,151.7,151,151,151,150.9,150.8,150.5,150.7,150.7,150.7,150.7,150.5,150.2,150.7
87,155,152,151.8,151.6,151.7,151.8,151.1,151.1,151.1,151,150.9,150.6,150.7,150.7,150.7,150.7,150.6,150.2,150.7
88,155.1,152.1,151.9,151.8,151.8,151.9,151.2,151.1,151.1,151.1,151,150.7,150.8,150.8,150.8,150.8,150.7,150.3,150.8
89,155.2,152.3,152.1,152,151.9,152,151.2,151.2,151.2,151.2,151,150.8,150.9,150.9,150.9,150.9,150.7,150.3,150.9
90,155.3,152.4,152.2,152.1,152,152.1,151.3,151.3,151.3,151.3,151.1,150.9,150.9,150.9,150.9,150.9,150.8,150.4,151
91,155.4,152.6,152.4,152.3,152.1,152.2,151.4,151.4,151.4,151.4,151.2,151,150.9,150.9,150.9,150.9,150.7,150.3,151.1
92,155.5,152.7,152.5,152.4,152.2,152.4,151.5,151.5,151.5,151.5,151.3,151.1,151,151,150.9,150.9,150.8,150.4,151.2
93,155.6,152.9,152.7,152.5,152.4,152.5,151.6,151.6,151.6,151.5,151.3,151.2,151,151,151,151,150.9,150.5,151.3
94,155.7,153,152.8,152.7,152.5,152.5,151.6,151.6,151.6,151.6,151.4,151.3,151.1,151.1,151.1,151.1,151,150.6,151.3
95,155.8,153.2,153,152.8,152.7,152.6,151.7,151.7,151.7,151.7,151.4,151.4,151.2,151.2,151.2,151.2,151.1,150.7,151.4
96,155.9,153.3,153.1,153,152.8,152.7,151.7,151.7,151.7,151.7,151.5,151.4,151.3,151.3,151.3,151.3,151.2,150.8,151.5
97,156,153.4,153.2,153.1,152.9,152.8,151.7,151.7,151.7,151.7,151.5,151.5,151.4,151.4,151.4,151.4,151.3,150.9,151.6
98,156.1,153.6,153.4,153.2,153.1,152.9,151.8,151.8,151.8,151.8,151.6,151.6,151.5,151.5,151.5,151.5,151.4,151,151.7
99,156.2,153.7,153.5,153.4,153.2,153,151.9,151.9,151.9,151.9,151.7,151.7,151.6,151.6,151.6,151.6,151.5,151.1,151.7
100,156.3,153.8,153.6,153.5,153.3,153.1,152,152,152,152,151.8,151.8,151.7,151.7,151.7,151.7,151.5,151.1,151.8
101,156.3,154,153.8,153.6,153.5,153.2,152.1,152.1,152.1,152.1,151.9,151.9,151.8,151.8,151.8,151.8,151.6,151.2,151.9
102,156.4,154.1,153.9,153.7,153.6,153.3,152.2,152.2,152.2,152.2,152,151.9,151.9,151.9,151.9,151.9,151.7,151.3,152
103,156.5,154.2,154,153.9,153.7,153.4,152.3,152.3,152.3,152.3,152.1,152,152,152,152,151.9,151.8,151.4,152.1
104,156.6,154.3,154.1,154,153.8,153.5,152.4,152.4,152.4,152.4,152.2,152.1,152,152,152,152,151.9,151.5,152.1
105,156.7,154.4,154.2,154,153.8,153.5,152.5,152.5,152.5,152.5,152.2,152.2,152.1,152.1,152.1,152.1,152,151.6,152.2
106,156.8,154.5,154.2,154.1,153.9,153.6,152.6,152.6,152.6,152.6,152.3,152.3,152.2,152.2,152.2,152.2,152.1,151.6,152.3
107,156.8,154.6,154.4,154.2,154.1,153.7,152.7,152.7,152.7,152.6,152.4,152.3,152.3,152.3,152.3,152.3,152.1,151.7,152.3
108,156.9,154.7,154.5,154.4,154.2,153.8,152.8,152.7,152.7,152.7,152.5,152.4,152.4,152.4,152.4,152.4,152.2,151.8,152.4
109,157,154.9,154.7,154.5,154.3,153.8,152.8,152.8,152.8,152.8,152.6,152.5,152.5,152.5,152.5,152.5,152.3,151.9,152.5
110,157.1,155,154.8,154.7,154.5,153.9,152.9,152.9,152.9,152.9,152.7,152.6,152.6,152.6,152.5,152.5,152.4,152,152.6
111,157.2,155.1,154.9,154.8,154.6,154,153,153,153,153,152.8,152.6,152.6,152.6,152.6,152.6,152.5,152,152.6
112,157.2,155.3,155.1,154.9,154.7,154,153.1,153.1,153.1,153.1,152.9,152.7,152.7,152.7,152.7,152.7,152.6,152.1,152.7
113,157.3,155.4,155.2,155.1,154.9,154.1,153.2,153.2,153.2,153.2,152.9,152.8,152.8,152.8,152.8,152.8,152.6,152.2,152.8
114,157.4,155.5,155.3,155.2,155,154.2,153.3,153.3,153.3,153.3,153,152.8,152.9,152.9,152.9,152.9,152.7,152.3,152.8
115,157.5,155.6,155.4,155.3,155.1,154.2,153.4,153.4,153.4,153.3,153.1,152.9,153,153,153,152.9,152.8,152.4,152.9
116,157.5,155.8,155.6,155.4,155.3,154.3,153.4,153.4,153.4,153.4,153.2,153,153,153,153,153,152.9,152.4,153
117,157.6,155.9,155.7,155.6,155.4,154.3,153.5,153.5,153.5,153.5,153.3,153,153.1,153.1,153.1,153.1,152.9,152.5,153
118,157.7,156,155.8,155.7,155.5,154.3,153.6,153.6,153.6,153.6,153.3,153.1,153.2,153.2,153.2,153.2,153,152.6,153.1
119,157.8,156.2,156,155.8,155.6,154.3,153.7,153.7,153.7,153.7,153.4,153.2,153.3,153.3,153.3,153.3,153.1,152.7,153.2
120,157.8,156.3,156.1,156,155.8,154.3,153.8,153.8,153.8,153.8,153.5,153.2,153.3,153.3,153.3,153.3,153.2,152.7,153.2
121,157.9,156.4,156.2,156.1,155.9,154.4,153.9,153.9,153.9,153.8,153.6,153.3,153.4,153.4,153.4,153.4,153.3,152.8,153.3
122,158,156.5,156.3,156.2,156,154.5,153.9,153.9,153.9,153.9,153.7,153.4,153.5,153.5,153.5,153.5,153.3,152.9,153.4
123,158.1,156.6,156.5,156.3,156.1,154.6,154,154,154,154,153.7,153.4,153.6,153.6,153.6,153.6,153.4,152.9,153.4
124,158.1,156.8,156.6,156.5,156.3,154.6,154.1,154.1,154.1,154.1,153.8,153.5,153.6,153.6,153.6,153.6,153.5,153,153.5
125,158.2,156.9,156.7,156.6,156.4,154.7,154.2,154.2,154.2,154.2,153.9,153.6,153.7,153.7,153.7,153.7,153.5,153.1,153.5
126,158.3,157,156.8,156.7,156.5,154.8,154.3,154.3,154.2,154.2,154,153.6,153.8,153.8,153.8,153.8,153.6,153.2,153.6
127,158.3,157.1,156.9,156.8,156.6,154.8,154.3,154.3,154.3,154.3,154.1,153.7,153.9,153.9,153.9,153.9,153.7,153.2,153.7
128,158.4,157.2,157.1,156.9,156.8,154.9,154.4,154.4,154.4,154.4,154.1,153.7,153.9,153.9,153.9,153.9,153.8,153.3,153.7
129,158.5,157.3,157.2,157.1,156.9,155,154.5,154.5,154.5,154.5,154.2,153.8,154,154,154,154,153.8,153.4,153.8
130,158.5,158.1,157.3,157.2,157,155.1,154.6,154.6,154.6,154.5,154.3,153.8,154.1,154.1,154.1,154.1,153.9,153.4,153.8
131,158.6,159.1,157.4,157.3,157.2,155.1,154.6,154.6,154.6,154.6,154.3,153.9,154.2,154.1,154.1,154.1,154,153.5,153.9
132,158.7,159.8,157.5,157.4,157.3,155.2,154.7,154.7,154.7,154.7,154.4,154,154.2,154.2,154.2,154.2,154,153.6,153.9
133,158.7,160.8,157.6,157.6,157.4,155.3,154.8,154.8,154.8,154.8,154.5,154,154.3,154.3,154.3,154.3,154.1,153.6,154
134,158.8,162,157.8,157.7,157.5,155.3,154.9,154.9,154.9,154.8,154.6,154.1,154.4,154.4,154.4,154.3,154.2,153.7,154
135,158.9,163.2,157.9,157.8,157.6,155.4,154.9,154.9,154.9,154.9,154.6,154.1,154.4,154.4,154.4,154.4,154.2,153.8,154.1
136,158.9,164.3,158,157.9,157.7,155.5,155,155,155,155,154.7,154.2,154.5,154.5,154.5,154.5,154.3,153.8,154.1
137,159,165.5,158.1,158,157.8,155.5,155.1,155.1,155.1,155.1,154.8,154.2,154.6,154.6,154.6,154.6,154.4,153.9,154.2
138,159.1,166.6,158.2,158.1,157.9,155.6,155.2,155.2,155.2,155.1,154.9,154.3,154.6,154.6,154.6,154.6,154.4,153.9,154.2
139,159.1,167.7,158.3,158.2,158,155.7,155.2,155.2,155.2,155.2,154.9,154.3,154.7,154.7,154.7,154.7,154.5,154,154.3
140,159.2,169.6,158.4,158.3,158.1,155.7,155.3,155.3,155.3,155.3,155,154.4,154.8,154.8,154.8,154.8,154.6,154.1,154.3
141,159.2,171.8,158.5,158.4,158.2,155.9,155.4,155.4,155.4,155.4,155.1,154.4,154.8,154.8,154.8,154.8,154.6,154.1,154.4
142,159.3,174.1,158.6,158.5,158.4,156,155.5,155.4,155.4,155.4,155.1,154.4,154.9,154.9,154.9,154.9,154.7,154.2,154.4
143,159.3,176.4,158.7,158.6,158.4,156.1,155.5,155.5,155.5,155.5,155.2,154.4,155,155,155,155,154.8,154.3,154.5
144,159.4,178.6,158.8,158.7,158.6,156.2,155.6,155.6,155.6,155.6,155.3,154.5,155,155,155,155,154.8,154.3,154.5
145,159.5,180.9,159,158.8,158.7,156.3,155.7,155.7,155.7,155.6,155.3,154.5,155.1,155.1,155.1,155.1,154.9,154.4,154.5
146,159.5,183.2,159,158.9,158.7,156.4,155.7,155.7,155.7,155.7,155.4,154.5,155.2,155.2,155.2,155.1,155,154.4,154.6
147,159.6,185.5,159.1,159.1,158.9,156.5,155.8,155.8,155.8,155.8,155.5,154.5,155.2,155.2,155.2,155.2,155,154.5,154.6
148,159.6,187.8,159.8,159.1,159,156.6,155.9,155.9,155.9,155.8,155.5,154.6,155.3,155.3,155.3,155.3,155.1,154.6,154.6
149,159.7,190.1,161.7,159.2,159.1,156.7,155.9,155.9,155.9,155.9,155.6,154.6,155.4,155.3,155.3,155.3,155.1,154.6,154.6
150,159.7,191.1,163.6,159.4,159.2,156.8,156,156,156,156,155.7,154.7,155.4,155.4,155.4,155.4,155.2,154.7,154.6
151,159.8,191.8,165.6,159.4,159.3,156.9,156.1,156.1,156.1,156.1,155.7,154.8,155.5,155.5,155.5,155.5,155.3,154.7,154.6
152,159.9,192.5,167.9,159.6,159.4,157,156.1,156.1,156.1,156.1,155.8,154.8,155.5,155.5,155.5,155.5,155.3,154.8,154.7
153,159.9,193.1,170.2,159.6,159.5,157.1,156.2,156.2,156.2,156.2,155.9,154.9,155.6,155.6,155.6,155.6,155.4,154.8,154.7
154,160,193.7,172.5,159.8,159.6,157.2,156.3,156.3,156.3,156.3,155.9,154.9,155.7,155.7,155.7,155.6,155.4,154.9,154.8
155,160,194.2,174.7,159.8,159.7,157.3,156.3,156.3,156.3,156.3,156,155,155.7,155.7,155.7,155.7,155.5,155,154.9
156,160.1,194.7,177,161.6,159.8,157.4,156.4,156.4,156.4,156.4,156.1,155,155.8,155.8,155.8,155.8,155.6,155,154.9
157,160.1,195.2,179,163.6,159.9,157.5,156.5,156.5,156.5,156.4,156.1,155.1,155.8,155.8,155.8,155.8,155.6,155.1,155
158,160.2,195.7,180.7,165.8,160,157.6,156.5,156.5,156.5,156.5,156.2,155.2,155.9,155.9,155.9,155.9,155.7,155.1,155
159,160.2,196.2,182.2,167.9,160.1,157.7,156.6,156.6,156.6,156.6,156.2,155.2,156,156,156,155.9,155.7,155.2,155.1
160,160.3,196.6,183.6,170.1,160.2,157.8,156.7,156.7,156.7,156.6,156.3,155.3,156,156,156,156,155.8,155.2,155.1
161,160.4,197.1,184.8,172.3,160.3,157.9,156.7,156.7,156.7,156.7,156.4,155.3,156.1,156.1,156.1,156.1,155.9,155.3,155.2
162,160.4,197.5,185.9,174.4,160.4,158,156.8,156.8,156.8,156.8,156.4,155.4,156.1,156.1,156.1,156.1,155.9,155.3,155.2
163,160.5,197.9,186.9,176.6,160.5,158.1,156.9,156.9,156.8,156.8,156.5,155.4,156.2,156.2,156.2,156.2,156,155.4,155.3
164,160.5,198.2,187.8,178.7,160.6,158.2,156.9,156.9,156.9,156.9,156.5,155.5,156.3,156.3,156.3,156.2,156,155.5,155.3
165,160.6,198.6,188.7,180.5,160.7,158.3,157,157,157,157,156.6,155.5,156.3,156.3,156.3,156.3,156.1,155.5,155.4
166,160.6,199,189.5,182.1,162.1,158.4,157,157,157,157,156.7,155.6,156.4,156.4,156.4,156.4,156.1,155.6,155.4
167,160.7,199.3,190.3,183.5,164.4,158.5,157.1,157.1,157.1,157.1,156.7,155.6,156.4,156.4,156.4,156.4,156.2,155.6,155.5
168,160.7,199.7,191,184.7,166.6,158.6,157.2,157.2,157.2,157.1,156.8,155.7,156.5,156.5,156.5,156.5,156.3,155.7,155.6
169,160.8,200,191.6,185.9,168.7,158.7,157.2,157.2,157.2,157.2,156.8,155.7,156.5,156.5,156.5,156.5,156.3,155.7,155.6
170,160.8,200.3,192.3,186.9,170.8,158.8,157.3,157.3,157.3,157.3,156.9,155.8,156.6,156.6,156.6,156.6,156.4,155.8,155.7
171,160.9,200.7,192.9,187.9,172.9,158.9,157.4,157.3,157.3,157.3,157,155.8,156.7,156.7,156.7,156.6,156.4,155.8,155.7
172,160.9,201,193.5,188.8,175,159,157.4,157.4,157.4,157.4,157,155.9,156.7,156.7,156.7,156.7,156.5,155.9,155.8
173,161,201.3,194,189.6,177.1,159.1,157.5,157.5,157.5,157.4,157.1,155.9,156.8,156.8,156.8,156.8,156.5,155.9,155.8
